# Structure: t,	 a_calc,	 va_calc,	 E(t)/E0 - 1
		0.000000	 3.000000	 0.000000	 0.000000
		0.001000	 3.000002	 0.001730	 0.000000
		0.002000	 3.000005	 0.003458	 0.000001
		0.003000	 3.000010	 0.005184	 0.000001
		0.004000	 3.000017	 0.006908	 0.000003
		0.005000	 3.000026	 0.008629	 0.000004
		0.006000	 3.000036	 0.010348	 0.000006
		0.007000	 3.000048	 0.012064	 0.000007
		0.008000	 3.000062	 0.013777	 0.000010
		0.009000	 3.000078	 0.015487	 0.000012
		0.010000	 3.000095	 0.017193	 0.000015
		0.011000	 3.000114	 0.018895	 0.000018
		0.012000	 3.000134	 0.020594	 0.000021
		0.013000	 3.000157	 0.022288	 0.000025
		0.014000	 3.000181	 0.023977	 0.000029
		0.015000	 3.000206	 0.025662	 0.000033
		0.016000	 3.000234	 0.027343	 0.000037
		0.017000	 3.000263	 0.029018	 0.000042
		0.018000	 3.000293	 0.030687	 0.000047
		0.019000	 3.000326	 0.032352	 0.000052
		0.020000	 3.000360	 0.034010	 0.000058
		0.021000	 3.000395	 0.035663	 0.000063
		0.022000	 3.000433	 0.037309	 0.000069
		0.023000	 3.000472	 0.038949	 0.000076
		0.024000	 3.000512	 0.040582	 0.000082
		0.025000	 3.000554	 0.042208	 0.000089
		0.026000	 3.000598	 0.043828	 0.000096
		0.027000	 3.000644	 0.045440	 0.000103
		0.028000	 3.000691	 0.047044	 0.000111
		0.029000	 3.000739	 0.048641	 0.000118
		0.030000	 3.000789	 0.050230	 0.000126
		0.031000	 3.000841	 0.051811	 0.000134
		0.032000	 3.000895	 0.053383	 0.000143
		0.033000	 3.000950	 0.054947	 0.000151
		0.034000	 3.001006	 0.056502	 0.000160
		0.035000	 3.001064	 0.058048	 0.000169
		0.036000	 3.001124	 0.059585	 0.000178
		0.037000	 3.001185	 0.061113	 0.000188
		0.038000	 3.001248	 0.062631	 0.000198
		0.039000	 3.001312	 0.064139	 0.000207
		0.040000	 3.001377	 0.065637	 0.000217
		0.041000	 3.001444	 0.067124	 0.000228
		0.042000	 3.001513	 0.068602	 0.000238
		0.043000	 3.001583	 0.070068	 0.000249
		0.044000	 3.001655	 0.071524	 0.000259
		0.045000	 3.001728	 0.072969	 0.000270
		0.046000	 3.001802	 0.074402	 0.000282
		0.047000	 3.001878	 0.075824	 0.000293
		0.048000	 3.001955	 0.077235	 0.000304
		0.049000	 3.002034	 0.078633	 0.000316
		0.050000	 3.002114	 0.080020	 0.000328
		0.051000	 3.002195	 0.081394	 0.000339
		0.052000	 3.002278	 0.082756	 0.000351
		0.053000	 3.002362	 0.084105	 0.000364
		0.054000	 3.002447	 0.085441	 0.000376
		0.055000	 3.002534	 0.086764	 0.000388
		0.056000	 3.002622	 0.088075	 0.000401
		0.057000	 3.002712	 0.089371	 0.000413
		0.058000	 3.002802	 0.090654	 0.000426
		0.059000	 3.002894	 0.091924	 0.000439
		0.060000	 3.002987	 0.093179	 0.000452
		0.061000	 3.003082	 0.094420	 0.000465
		0.062000	 3.003177	 0.095647	 0.000478
		0.063000	 3.003274	 0.096859	 0.000491
		0.064000	 3.003372	 0.098057	 0.000505
		0.065000	 3.003472	 0.099239	 0.000518
		0.066000	 3.003572	 0.100407	 0.000532
		0.067000	 3.003674	 0.101559	 0.000545
		0.068000	 3.003776	 0.102696	 0.000559
		0.069000	 3.003880	 0.103817	 0.000572
		0.070000	 3.003985	 0.104923	 0.000586
		0.071000	 3.004091	 0.106012	 0.000600
		0.072000	 3.004198	 0.107086	 0.000613
		0.073000	 3.004306	 0.108143	 0.000627
		0.074000	 3.004415	 0.109184	 0.000641
		0.075000	 3.004526	 0.110208	 0.000655
		0.076000	 3.004637	 0.111215	 0.000669
		0.077000	 3.004749	 0.112205	 0.000683
		0.078000	 3.004862	 0.113178	 0.000697
		0.079000	 3.004976	 0.114134	 0.000710
		0.080000	 3.005091	 0.115073	 0.000724
		0.081000	 3.005207	 0.115993	 0.000738
		0.082000	 3.005324	 0.116896	 0.000752
		0.083000	 3.005442	 0.117782	 0.000766
		0.084000	 3.005561	 0.118648	 0.000780
		0.085000	 3.005680	 0.119497	 0.000793
		0.086000	 3.005801	 0.120328	 0.000807
		0.087000	 3.005922	 0.121139	 0.000821
		0.088000	 3.006044	 0.121932	 0.000835
		0.089000	 3.006166	 0.122707	 0.000848
		0.090000	 3.006290	 0.123462	 0.000862
		0.091000	 3.006414	 0.124198	 0.000875
		0.092000	 3.006539	 0.124915	 0.000889
		0.093000	 3.006665	 0.125612	 0.000902
		0.094000	 3.006791	 0.126290	 0.000915
		0.095000	 3.006918	 0.126948	 0.000929
		0.096000	 3.007045	 0.127586	 0.000942
		0.097000	 3.007174	 0.128204	 0.000955
		0.098000	 3.007302	 0.128802	 0.000968
		0.099000	 3.007432	 0.129380	 0.000981
		0.100000	 3.007562	 0.129938	 0.000993
		0.101000	 3.007692	 0.130475	 0.001006
		0.102000	 3.007823	 0.130991	 0.001019
		0.103000	 3.007955	 0.131487	 0.001031
		0.104000	 3.008087	 0.131961	 0.001043
		0.105000	 3.008219	 0.132415	 0.001056
		0.106000	 3.008352	 0.132848	 0.001068
		0.107000	 3.008485	 0.133259	 0.001080
		0.108000	 3.008619	 0.133649	 0.001091
		0.109000	 3.008753	 0.134017	 0.001103
		0.110000	 3.008887	 0.134364	 0.001115
		0.111000	 3.009022	 0.134689	 0.001126
		0.112000	 3.009157	 0.134992	 0.001137
		0.113000	 3.009292	 0.135274	 0.001148
		0.114000	 3.009428	 0.135533	 0.001159
		0.115000	 3.009563	 0.135770	 0.001170
		0.116000	 3.009699	 0.135985	 0.001181
		0.117000	 3.009836	 0.136177	 0.001191
		0.118000	 3.009972	 0.136348	 0.001201
		0.119000	 3.010108	 0.136495	 0.001212
		0.120000	 3.010245	 0.136620	 0.001221
		0.121000	 3.010382	 0.136722	 0.001231
		0.122000	 3.010519	 0.136801	 0.001241
		0.123000	 3.010655	 0.136858	 0.001250
		0.124000	 3.010792	 0.136891	 0.001259
		0.125000	 3.010929	 0.136901	 0.001269
		0.126000	 3.011066	 0.136888	 0.001277
		0.127000	 3.011203	 0.136852	 0.001286
		0.128000	 3.011340	 0.136792	 0.001295
		0.129000	 3.011476	 0.136709	 0.001303
		0.130000	 3.011613	 0.136602	 0.001311
		0.131000	 3.011750	 0.136472	 0.001319
		0.132000	 3.011886	 0.136318	 0.001327
		0.133000	 3.012022	 0.136140	 0.001334
		0.134000	 3.012158	 0.135939	 0.001341
		0.135000	 3.012294	 0.135713	 0.001348
		0.136000	 3.012429	 0.135464	 0.001355
		0.137000	 3.012564	 0.135191	 0.001362
		0.138000	 3.012699	 0.134893	 0.001368
		0.139000	 3.012834	 0.134571	 0.001375
		0.140000	 3.012968	 0.134226	 0.001381
		0.141000	 3.013102	 0.133856	 0.001387
		0.142000	 3.013235	 0.133461	 0.001392
		0.143000	 3.013368	 0.133042	 0.001398
		0.144000	 3.013501	 0.132599	 0.001403
		0.145000	 3.013633	 0.132131	 0.001408
		0.146000	 3.013765	 0.131639	 0.001413
		0.147000	 3.013896	 0.131122	 0.001417
		0.148000	 3.014026	 0.130581	 0.001422
		0.149000	 3.014156	 0.130015	 0.001426
		0.150000	 3.014286	 0.129424	 0.001430
		0.151000	 3.014415	 0.128808	 0.001434
		0.152000	 3.014543	 0.128168	 0.001437
		0.153000	 3.014670	 0.127503	 0.001441
		0.154000	 3.014797	 0.126813	 0.001444
		0.155000	 3.014923	 0.126098	 0.001447
		0.156000	 3.015049	 0.125358	 0.001450
		0.157000	 3.015173	 0.124593	 0.001452
		0.158000	 3.015297	 0.123804	 0.001454
		0.159000	 3.015420	 0.122989	 0.001457
		0.160000	 3.015542	 0.122149	 0.001459
		0.161000	 3.015663	 0.121285	 0.001460
		0.162000	 3.015784	 0.120395	 0.001462
		0.163000	 3.015903	 0.119480	 0.001463
		0.164000	 3.016022	 0.118540	 0.001465
		0.165000	 3.016139	 0.117575	 0.001466
		0.166000	 3.016256	 0.116585	 0.001466
		0.167000	 3.016372	 0.115570	 0.001467
		0.168000	 3.016486	 0.114530	 0.001468
		0.169000	 3.016600	 0.113465	 0.001468
		0.170000	 3.016712	 0.112374	 0.001468
		0.171000	 3.016823	 0.111259	 0.001468
		0.172000	 3.016933	 0.110118	 0.001468
		0.173000	 3.017042	 0.108952	 0.001468
		0.174000	 3.017150	 0.107762	 0.001467
		0.175000	 3.017257	 0.106546	 0.001467
		0.176000	 3.017362	 0.105305	 0.001466
		0.177000	 3.017466	 0.104039	 0.001465
		0.178000	 3.017569	 0.102748	 0.001464
		0.179000	 3.017670	 0.101431	 0.001463
		0.180000	 3.017770	 0.100090	 0.001461
		0.181000	 3.017869	 0.098724	 0.001460
		0.182000	 3.017966	 0.097333	 0.001458
		0.183000	 3.018062	 0.095917	 0.001456
		0.184000	 3.018157	 0.094476	 0.001455
		0.185000	 3.018250	 0.093010	 0.001453
		0.186000	 3.018341	 0.091519	 0.001451
		0.187000	 3.018431	 0.090004	 0.001449
		0.188000	 3.018520	 0.088463	 0.001446
		0.189000	 3.018607	 0.086898	 0.001444
		0.190000	 3.018692	 0.085308	 0.001442
		0.191000	 3.018776	 0.083694	 0.001439
		0.192000	 3.018858	 0.082055	 0.001437
		0.193000	 3.018938	 0.080391	 0.001434
		0.194000	 3.019017	 0.078702	 0.001431
		0.195000	 3.019094	 0.076990	 0.001429
		0.196000	 3.019169	 0.075252	 0.001426
		0.197000	 3.019242	 0.073491	 0.001423
		0.198000	 3.019314	 0.071704	 0.001420
		0.199000	 3.019384	 0.069894	 0.001417
		0.200000	 3.019452	 0.068059	 0.001415
		0.201000	 3.019518	 0.066200	 0.001412
		0.202000	 3.019583	 0.064317	 0.001409
		0.203000	 3.019645	 0.062410	 0.001406
		0.204000	 3.019705	 0.060479	 0.001403
		0.205000	 3.019764	 0.058524	 0.001400
		0.206000	 3.019821	 0.056546	 0.001397
		0.207000	 3.019875	 0.054543	 0.001394
		0.208000	 3.019928	 0.052516	 0.001391
		0.209000	 3.019978	 0.050466	 0.001388
		0.210000	 3.020026	 0.048393	 0.001386
		0.211000	 3.020073	 0.046296	 0.001383
		0.212000	 3.020117	 0.044175	 0.001380
		0.213000	 3.020159	 0.042031	 0.001378
		0.214000	 3.020199	 0.039864	 0.001375
		0.215000	 3.020236	 0.037674	 0.001373
		0.216000	 3.020272	 0.035460	 0.001370
		0.217000	 3.020305	 0.033224	 0.001368
		0.218000	 3.020336	 0.030964	 0.001366
		0.219000	 3.020365	 0.028682	 0.001364
		0.220000	 3.020391	 0.026377	 0.001362
		0.221000	 3.020415	 0.024049	 0.001360
		0.222000	 3.020437	 0.021699	 0.001358
		0.223000	 3.020456	 0.019327	 0.001357
		0.224000	 3.020473	 0.016932	 0.001355
		0.225000	 3.020488	 0.014515	 0.001354
		0.226000	 3.020500	 0.012075	 0.001353
		0.227000	 3.020509	 0.009614	 0.001352
		0.228000	 3.020517	 0.007130	 0.001352
		0.229000	 3.020521	 0.004625	 0.001351
		0.230000	 3.020523	 0.002098	 0.001351
		0.231000	 3.020523	 -0.000450	 0.001351
		0.232000	 3.020520	 -0.003020	 0.001351
		0.233000	 3.020514	 -0.005611	 0.001351
		0.234000	 3.020506	 -0.008224	 0.001351
		0.235000	 3.020495	 -0.010858	 0.001352
		0.236000	 3.020482	 -0.013512	 0.001353
		0.237000	 3.020465	 -0.016188	 0.001354
		0.238000	 3.020447	 -0.018885	 0.001356
		0.239000	 3.020425	 -0.021602	 0.001358
		0.240000	 3.020401	 -0.024339	 0.001360
		0.241000	 3.020373	 -0.027097	 0.001362
		0.242000	 3.020344	 -0.029876	 0.001365
		0.243000	 3.020311	 -0.032674	 0.001367
		0.244000	 3.020275	 -0.035493	 0.001371
		0.245000	 3.020237	 -0.038331	 0.001374
		0.246000	 3.020196	 -0.041189	 0.001378
		0.247000	 3.020152	 -0.044067	 0.001382
		0.248000	 3.020105	 -0.046964	 0.001387
		0.249000	 3.020055	 -0.049881	 0.001392
		0.250000	 3.020002	 -0.052817	 0.001397
		0.251000	 3.019946	 -0.055771	 0.001402
		0.252000	 3.019888	 -0.058745	 0.001408
		0.253000	 3.019826	 -0.061738	 0.001414
		0.254000	 3.019761	 -0.064749	 0.001421
		0.255000	 3.019693	 -0.067778	 0.001428
		0.256000	 3.019623	 -0.070826	 0.001436
		0.257000	 3.019549	 -0.073892	 0.001444
		0.258000	 3.019472	 -0.076977	 0.001452
		0.259000	 3.019392	 -0.080078	 0.001461
		0.260000	 3.019308	 -0.083198	 0.001470
		0.261000	 3.019222	 -0.086335	 0.001479
		0.262000	 3.019133	 -0.089490	 0.001489
		0.263000	 3.019040	 -0.092662	 0.001500
		0.264000	 3.018944	 -0.095851	 0.001511
		0.265000	 3.018845	 -0.099057	 0.001522
		0.266000	 3.018743	 -0.102280	 0.001534
		0.267000	 3.018637	 -0.105519	 0.001546
		0.268000	 3.018528	 -0.108775	 0.001559
		0.269000	 3.018416	 -0.112047	 0.001572
		0.270000	 3.018301	 -0.115335	 0.001586
		0.271000	 3.018182	 -0.118639	 0.001600
		0.272000	 3.018060	 -0.121959	 0.001615
		0.273000	 3.017935	 -0.125294	 0.001630
		0.274000	 3.017807	 -0.128645	 0.001646
		0.275000	 3.017675	 -0.132011	 0.001662
		0.276000	 3.017539	 -0.135392	 0.001679
		0.277000	 3.017400	 -0.138788	 0.001696
		0.278000	 3.017258	 -0.142199	 0.001714
		0.279000	 3.017113	 -0.145625	 0.001733
		0.280000	 3.016963	 -0.149064	 0.001752
		0.281000	 3.016811	 -0.152518	 0.001771
		0.282000	 3.016655	 -0.155986	 0.001791
		0.283000	 3.016495	 -0.159468	 0.001812
		0.284000	 3.016333	 -0.162964	 0.001833
		0.285000	 3.016166	 -0.166473	 0.001855
		0.286000	 3.015996	 -0.169995	 0.001877
		0.287000	 3.015823	 -0.173531	 0.001900
		0.288000	 3.015645	 -0.177079	 0.001924
		0.289000	 3.015465	 -0.180640	 0.001948
		0.290000	 3.015281	 -0.184214	 0.001973
		0.291000	 3.015093	 -0.187800	 0.001998
		0.292000	 3.014901	 -0.191398	 0.002024
		0.293000	 3.014706	 -0.195008	 0.002051
		0.294000	 3.014508	 -0.198630	 0.002078
		0.295000	 3.014306	 -0.202263	 0.002106
		0.296000	 3.014100	 -0.205908	 0.002134
		0.297000	 3.013890	 -0.209565	 0.002163
		0.298000	 3.013677	 -0.213232	 0.002193
		0.299000	 3.013460	 -0.216910	 0.002223
		0.300000	 3.013239	 -0.220599	 0.002254
		0.301000	 3.013015	 -0.224298	 0.002285
		0.302000	 3.012787	 -0.228007	 0.002317
		0.303000	 3.012555	 -0.231727	 0.002350
		0.304000	 3.012320	 -0.235456	 0.002384
		0.305000	 3.012081	 -0.239195	 0.002418
		0.306000	 3.011838	 -0.242944	 0.002452
		0.307000	 3.011591	 -0.246701	 0.002488
		0.308000	 3.011340	 -0.250468	 0.002524
		0.309000	 3.011086	 -0.254244	 0.002560
		0.310000	 3.010828	 -0.258028	 0.002597
		0.311000	 3.010566	 -0.261821	 0.002635
		0.312000	 3.010301	 -0.265622	 0.002674
		0.313000	 3.010031	 -0.269431	 0.002713
		0.314000	 3.009758	 -0.273248	 0.002753
		0.315000	 3.009481	 -0.277073	 0.002793
		0.316000	 3.009200	 -0.280905	 0.002834
		0.317000	 3.008915	 -0.284744	 0.002876
		0.318000	 3.008627	 -0.288590	 0.002918
		0.319000	 3.008334	 -0.292443	 0.002961
		0.320000	 3.008038	 -0.296303	 0.003005
		0.321000	 3.007738	 -0.300169	 0.003049
		0.322000	 3.007434	 -0.304042	 0.003094
		0.323000	 3.007126	 -0.307920	 0.003140
		0.324000	 3.006814	 -0.311804	 0.003186
		0.325000	 3.006498	 -0.315694	 0.003233
		0.326000	 3.006179	 -0.319589	 0.003280
		0.327000	 3.005855	 -0.323490	 0.003328
		0.328000	 3.005528	 -0.327395	 0.003377
		0.329000	 3.005197	 -0.331305	 0.003426
		0.330000	 3.004861	 -0.335220	 0.003476
		0.331000	 3.004522	 -0.339139	 0.003527
		0.332000	 3.004179	 -0.343062	 0.003578
		0.333000	 3.003832	 -0.346989	 0.003629
		0.334000	 3.003481	 -0.350920	 0.003682
		0.335000	 3.003126	 -0.354854	 0.003735
		0.336000	 3.002768	 -0.358792	 0.003788
		0.337000	 3.002405	 -0.362732	 0.003842
		0.338000	 3.002038	 -0.366676	 0.003897
		0.339000	 3.001668	 -0.370622	 0.003952
		0.340000	 3.001293	 -0.374571	 0.004008
		0.341000	 3.000915	 -0.378522	 0.004065
		0.342000	 3.000532	 -0.382475	 0.004122
		0.343000	 3.000146	 -0.386430	 0.004179
		0.344000	 2.999755	 -0.390386	 0.004237
		0.345000	 2.999361	 -0.394344	 0.004296
		0.346000	 2.998963	 -0.398303	 0.004355
		0.347000	 2.998560	 -0.402264	 0.004415
		0.348000	 2.998154	 -0.406225	 0.004475
		0.349000	 2.997744	 -0.410186	 0.004536
		0.350000	 2.997330	 -0.414148	 0.004597
		0.351000	 2.996912	 -0.418110	 0.004659
		0.352000	 2.996490	 -0.422072	 0.004721
		0.353000	 2.996064	 -0.426034	 0.004784
		0.354000	 2.995634	 -0.429995	 0.004847
		0.355000	 2.995200	 -0.433956	 0.004911
		0.356000	 2.994762	 -0.437916	 0.004975
		0.357000	 2.994320	 -0.441875	 0.005040
		0.358000	 2.993874	 -0.445832	 0.005105
		0.359000	 2.993424	 -0.449788	 0.005171
		0.360000	 2.992970	 -0.453742	 0.005237
		0.361000	 2.992513	 -0.457695	 0.005303
		0.362000	 2.992051	 -0.461645	 0.005370
		0.363000	 2.991586	 -0.465593	 0.005438
		0.364000	 2.991116	 -0.469539	 0.005505
		0.365000	 2.990642	 -0.473481	 0.005573
		0.366000	 2.990165	 -0.477421	 0.005642
		0.367000	 2.989684	 -0.481358	 0.005711
		0.368000	 2.989198	 -0.485291	 0.005780
		0.369000	 2.988709	 -0.489221	 0.005849
		0.370000	 2.988216	 -0.493147	 0.005919
		0.371000	 2.987719	 -0.497070	 0.005989
		0.372000	 2.987218	 -0.500988	 0.006060
		0.373000	 2.986713	 -0.504901	 0.006131
		0.374000	 2.986204	 -0.508811	 0.006202
		0.375000	 2.985692	 -0.512715	 0.006273
		0.376000	 2.985175	 -0.516615	 0.006345
		0.377000	 2.984654	 -0.520509	 0.006417
		0.378000	 2.984130	 -0.524398	 0.006489
		0.379000	 2.983602	 -0.528282	 0.006562
		0.380000	 2.983070	 -0.532160	 0.006634
		0.381000	 2.982534	 -0.536031	 0.006707
		0.382000	 2.981994	 -0.539897	 0.006780
		0.383000	 2.981450	 -0.543757	 0.006853
		0.384000	 2.980902	 -0.547610	 0.006927
		0.385000	 2.980351	 -0.551456	 0.007000
		0.386000	 2.979796	 -0.555296	 0.007074
		0.387000	 2.979236	 -0.559128	 0.007148
		0.388000	 2.978673	 -0.562953	 0.007222
		0.389000	 2.978107	 -0.566771	 0.007296
		0.390000	 2.977536	 -0.570581	 0.007370
		0.391000	 2.976962	 -0.574384	 0.007445
		0.392000	 2.976384	 -0.578178	 0.007519
		0.393000	 2.975802	 -0.581964	 0.007594
		0.394000	 2.975216	 -0.585742	 0.007668
		0.395000	 2.974626	 -0.589511	 0.007743
		0.396000	 2.974033	 -0.593271	 0.007817
		0.397000	 2.973436	 -0.597023	 0.007892
		0.398000	 2.972835	 -0.600765	 0.007966
		0.399000	 2.972231	 -0.604498	 0.008041
		0.400000	 2.971623	 -0.608222	 0.008115
		0.401000	 2.971011	 -0.611936	 0.008190
		0.402000	 2.970395	 -0.615640	 0.008264
		0.403000	 2.969776	 -0.619334	 0.008338
		0.404000	 2.969153	 -0.623019	 0.008412
		0.405000	 2.968526	 -0.626692	 0.008486
		0.406000	 2.967896	 -0.630355	 0.008560
		0.407000	 2.967262	 -0.634008	 0.008634
		0.408000	 2.966624	 -0.637650	 0.008708
		0.409000	 2.965983	 -0.641280	 0.008781
		0.410000	 2.965338	 -0.644900	 0.008854
		0.411000	 2.964689	 -0.648508	 0.008927
		0.412000	 2.964037	 -0.652104	 0.009000
		0.413000	 2.963381	 -0.655689	 0.009073
		0.414000	 2.962722	 -0.659262	 0.009145
		0.415000	 2.962059	 -0.662823	 0.009217
		0.416000	 2.961393	 -0.666372	 0.009289
		0.417000	 2.960723	 -0.669908	 0.009360
		0.418000	 2.960050	 -0.673432	 0.009432
		0.419000	 2.959373	 -0.676944	 0.009502
		0.420000	 2.958692	 -0.680442	 0.009573
		0.421000	 2.958008	 -0.683928	 0.009643
		0.422000	 2.957321	 -0.687400	 0.009713
		0.423000	 2.956630	 -0.690859	 0.009782
		0.424000	 2.955936	 -0.694305	 0.009851
		0.425000	 2.955238	 -0.697737	 0.009920
		0.426000	 2.954537	 -0.701155	 0.009988
		0.427000	 2.953832	 -0.704560	 0.010055
		0.428000	 2.953124	 -0.707951	 0.010123
		0.429000	 2.952413	 -0.711327	 0.010189
		0.430000	 2.951698	 -0.714689	 0.010256
		0.431000	 2.950980	 -0.718037	 0.010321
		0.432000	 2.950259	 -0.721370	 0.010386
		0.433000	 2.949534	 -0.724688	 0.010451
		0.434000	 2.948806	 -0.727992	 0.010515
		0.435000	 2.948075	 -0.731280	 0.010578
		0.436000	 2.947340	 -0.734554	 0.010641
		0.437000	 2.946603	 -0.737812	 0.010703
		0.438000	 2.945862	 -0.741055	 0.010765
		0.439000	 2.945117	 -0.744282	 0.010826
		0.440000	 2.944370	 -0.747494	 0.010886
		0.441000	 2.943619	 -0.750690	 0.010946
		0.442000	 2.942865	 -0.753870	 0.011005
		0.443000	 2.942108	 -0.757034	 0.011063
		0.444000	 2.941348	 -0.760182	 0.011120
		0.445000	 2.940585	 -0.763313	 0.011177
		0.446000	 2.939818	 -0.766428	 0.011233
		0.447000	 2.939049	 -0.769527	 0.011288
		0.448000	 2.938276	 -0.772609	 0.011343
		0.449000	 2.937500	 -0.775675	 0.011397
		0.450000	 2.936722	 -0.778723	 0.011449
		0.451000	 2.935940	 -0.781755	 0.011501
		0.452000	 2.935155	 -0.784769	 0.011553
		0.453000	 2.934367	 -0.787767	 0.011603
		0.454000	 2.933577	 -0.790747	 0.011652
		0.455000	 2.932783	 -0.793710	 0.011701
		0.456000	 2.931986	 -0.796655	 0.011748
		0.457000	 2.931187	 -0.799583	 0.011795
		0.458000	 2.930384	 -0.802493	 0.011841
		0.459000	 2.929579	 -0.805385	 0.011886
		0.460000	 2.928771	 -0.808260	 0.011930
		0.461000	 2.927960	 -0.811116	 0.011972
		0.462000	 2.927146	 -0.813955	 0.012014
		0.463000	 2.926329	 -0.816775	 0.012055
		0.464000	 2.925509	 -0.819577	 0.012095
		0.465000	 2.924687	 -0.822361	 0.012134
		0.466000	 2.923862	 -0.825127	 0.012172
		0.467000	 2.923034	 -0.827874	 0.012208
		0.468000	 2.922203	 -0.830602	 0.012244
		0.469000	 2.921370	 -0.833312	 0.012279
		0.470000	 2.920534	 -0.836003	 0.012312
		0.471000	 2.919695	 -0.838675	 0.012345
		0.472000	 2.918854	 -0.841328	 0.012376
		0.473000	 2.918010	 -0.843963	 0.012406
		0.474000	 2.917163	 -0.846578	 0.012435
		0.475000	 2.916314	 -0.849175	 0.012463
		0.476000	 2.915462	 -0.851752	 0.012489
		0.477000	 2.914608	 -0.854310	 0.012515
		0.478000	 2.913751	 -0.856849	 0.012539
		0.479000	 2.912892	 -0.859369	 0.012562
